"Wavelength [nm]"	"V(l)_(CIE 1924)"	"V'(l)_(CIE 1951)"	M(l)_(Takahashi 2011)	ipRGC(l)_(Takahashi 2011)
380	0.000039	0.000589	0.2084592224	0
381	4.28264E-005	0.000665	0.2183701367	0
382	4.69146E-005	0.000752	0.2285653615	0
383	5.15896E-005	0.000854	0.2390425785	0
384	5.71764E-005	0.000972	0.249798839	0
385	0.000064	0.001108	0.2608305533	0
386	7.234421E-005	0.001268	0.2721334813	0
387	8.221224E-005	0.001453	0.283702725	0
388	9.350816E-005	0.001668	0.2955327231	0
389	0.0001061361	0.001918	0.3076172481	0
390	0.00012	0.002209	0.3199494042	0.0004809342
391	0.000134984	0.002547	0.3325216287	0.0006000864
392	0.000151492	0.002939	0.3453256948	0.0007477178
393	0.000170208	0.003394	0.3583527163	0.0009302647
394	0.000191816	0.003921	0.3715931554	0.0011554987
395	0.000217	0.00453	0.3850368317	0.0014327671
396	0.0002469067	0.00524	0.3986729339	0.0017733078
397	0.00028124	0.00605	0.4124900336	0.002190454
398	0.00031852	0.00698	0.4264761013	0.0027000684
399	0.0003572667	0.00806	0.4406185242	0.0033210476
400	0.000396	0.00929	0.4549041265	0.0040754377
401	0.0004337147	0.0107	0.4693191911	0.0049886305
402	0.000473024	0.01231	0.4838494842	0.0060880114
403	0.000517876	0.01413	0.4984802805	0.0074026244
404	0.0005722187	0.01619	0.5131963915	0.0089627488
405	0.00064	0.01852	0.5279821947	0.010798691
406	0.00072456	0.02113	0.5428216646	0.0129403052
407	0.0008255	0.02405	0.5576984055	0.0154198654
408	0.00094116	0.0273	0.5725956852	0.0182691555
409	0.00106988	0.03089	0.5874964704	0.0215177751
410	0.00121	0.03484	0.6023834633	0.0251928011
411	0.001362091	0.03916	0.6172391392	0.0293173682
412	0.001530752	0.0439	0.6320457848	0.033922838
413	0.001720368	0.049	0.6467855372	0.0390433725
414	0.001935323	0.0545	0.6614404248	0.0447166976
415	0.00218	0.0604	0.6759924065	0.0509833899
416	0.0024548	0.0668	0.6904234137	0.0578806832
417	0.002764	0.0736	0.7047153907	0.0654054509
418	0.0031178	0.0808	0.7188503361	0.0735222913
419	0.0035264	0.0885	0.732810344	0.0821690736
420	0.004	0.0966	0.7465776451	0.0912476171
421	0.00454624	0.1052	0.7601346471	0.1006602511
422	0.00515932	0.1141	0.7734639752	0.1104173752
423	0.00582928	0.1235	0.7865485116	0.1205866962
424	0.00654616	0.1334	0.7993714343	0.1312815273
425	0.0073	0.1436	0.8119162556	0.142655924
426	0.008086507	0.1541	0.8241668585	0.1548737201
427	0.00890872	0.1651	0.8361075334	0.1679063739
428	0.00976768	0.1764	0.8477230124	0.1816510924
429	0.01066443	0.1879	0.8589985032	0.1959612087
430	0.0116	0.1998	0.8699197207	0.210626686
431	0.01257317	0.2119	0.880472918	0.225459133
432	0.01358272	0.2243	0.8906449151	0.240476932
433	0.01462968	0.2369	0.9004231266	0.2557939084
434	0.01571509	0.2496	0.9097955865	0.2715677683
435	0.01684	0.2625	0.9187509727	0.2880033862
436	0.01800736	0.2755	0.9272786285	0.3052800541
437	0.01921448	0.2886	0.9353685824	0.3232517429
438	0.02045392	0.3017	0.9430115666	0.3416450182
439	0.02171824	0.3149	0.9501990322	0.3601316247
440	0.023	0.3281	0.9569231637	0.3783115222
441	0.02429461	0.3412	0.9631768906	0.3958313747
442	0.02561024	0.3543	0.9689538976	0.4128035248
443	0.02695857	0.3673	0.9742486318	0.4295258556
444	0.02835125	0.3803	0.9790563087	0.4463218478
445	0.0298	0.3931	0.983372916	0.463628447
446	0.03131083	0.406	0.9871952147	0.4817761009
447	0.03288368	0.418	0.9905207394	0.5005688344
448	0.03452112	0.431	0.9933477955	0.5196199712
449	0.03622571	0.443	0.9956754548	0.5384822521
450	0.038	0.455	0.9975035499	0.5566478012
451	0.03984667	0.467	0.9988326656	0.5736976983
452	0.041768	0.479	0.9996641294	0.5897108586
453	0.043766	0.49	1	0.604948474
454	0.04584267	0.502	0.999843054	0.6196987968
455	0.048	0.513	0.9991967714	0.6343159169
456	0.05024368	0.524	0.9980653192	0.6490869077
457	0.05257304	0.535	0.9964535337	0.6640516697
458	0.05498056	0.546	0.9943669017	0.6791756045
459	0.05745872	0.557	0.9918115399	0.6944528308
460	0.06	0.567	0.9887941738	0.7098279056
461	0.06260197	0.578	0.9853221151	0.7252572444
462	0.06527752	0.588	0.9814032379	0.7405573412
463	0.06804208	0.599	0.9770459546	0.7555473715
464	0.07091109	0.61	0.9722591905	0.7700159798
465	0.0739	0.62	0.9670523578	0.7837026219
466	0.077016	0.631	0.9614353291	0.796479719
467	0.0802664	0.642	0.9554184101	0.8085151879
468	0.0836668	0.653	0.9490123123	0.8200676826
469	0.0872328	0.664	0.9422281248	0.8314710152
470	0.09098	0.676	0.9350772862	0.8430010409
471	0.09491755	0.687	0.9275715561	0.854909594
472	0.09904584	0.699	0.919722987	0.8670630592
473	0.1033674	0.71	0.911543895	0.8792183476
474	0.1078846	0.722	0.9030468324	0.891118262
475	0.1126	0.734	0.8942445585	0.9025126331
476	0.117532	0.745	0.8851500121	0.9131817174
477	0.1226744	0.757	0.8757762833	0.9231102131
478	0.1279928	0.769	0.8661365867	0.9323707153
479	0.1334528	0.781	0.8562442336	0.941040994
480	0.13902	0.793	0.8461126062	0.9491815449
481	0.1446764	0.805	0.8357551312	0.9568562106
482	0.1504693	0.817	0.8251852547	0.9640430222
483	0.1564619	0.828	0.8144164172	0.9706754667
484	0.1627177	0.84	0.80346203	0.9766636818
485	0.1693	0.851	0.7923354516	0.9819620709
486	0.1762431	0.862	0.7810499652	0.9865255346
487	0.1835581	0.873	0.7696187573	0.9903781979
488	0.1912735	0.884	0.7580548967	0.9935461809
489	0.199418	0.894	0.7463713146	0.9960803596
490	0.20802	0.904	0.7345807856	0.997987479
491	0.2171199	0.914	0.7226959092	0.9993215922
492	0.2267345	0.923	0.7107290935	1
493	0.2368571	0.932	0.6986925378	0.9999640995
494	0.2474812	0.941	0.6865982185	0.9991338897
495	0.2586	0.949	0.674457874	0.9974545728
496	0.2701849	0.957	0.6622829915	0.9948511453
497	0.2822939	0.964	0.650084795	0.9914119417
498	0.2950505	0.97	0.6378742337	0.9871585753
499	0.308578	0.976	0.6256619716	0.9822279329
500	0.323	0.982	0.6134583779	0.9766664282
501	0.3384021	0.986	0.6012735189	0.9705437381
502	0.3546858	0.99	0.5891171498	0.9638630241
503	0.3716986	0.994	0.5769987089	0.9566071287
504	0.3892875	0.997	0.5649273109	0.9487831853
505	0.4073	0.998	0.5529117429	0.9403568232
506	0.4256299	1	0.5409604596	0.9313400037
507	0.4443096	1	0.5290815808	0.9217465954
508	0.4633944	1	0.5172828887	0.9115503389
509	0.4829395	0.998	0.5055718263	0.9008117003
510	0.503	0.997	0.4939554968	0.8895294595
511	0.5235693	0.994	0.4824406633	0.8777050654
512	0.544512	0.99	0.4710337496	0.8653027852
513	0.56569	0.986	0.4597408413	0.8522919197
514	0.5869653	0.981	0.4485676879	0.8386277192
515	0.6082	0.975	0.4375197056	0.8243101854
516	0.6293456	0.968	0.4266019797	0.8093250596
517	0.6503068	0.961	0.415819269	0.7937552914
518	0.6708752	0.953	0.4051760097	0.7777002357
519	0.6908424	0.944	0.3946763202	0.7612907511
520	0.71	0.935	0.384324006	0.7446162252
521	0.7281852	0.925	0.3741225655	0.7277446753
522	0.7454636	0.915	0.3640751958	0.710724384
523	0.7619694	0.904	0.3541847993	0.6935856462
524	0.7778368	0.892	0.34445399	0.6763425903
525	0.7932	0.88	0.3348851003	0.6590102231
526	0.8081104	0.867	0.3254801889	0.6416338799
527	0.8224962	0.854	0.3162410474	0.6241988806
528	0.8363068	0.84	0.3071692088	0.606708321
529	0.8494916	0.826	0.2982659546	0.5891674256
530	0.862	0.811	0.2895323231	0.5715966347
531	0.8738108	0.796	0.2809691177	0.5539912324
532	0.8849624	0.781	0.2725769148	0.5364488315
533	0.8954936	0.765	0.2643560724	0.5190097656
534	0.9054432	0.749	0.2563067383	0.5017575552
535	0.9148501	0.733	0.2484288586	0.4847552661
536	0.9237348	0.717	0.2407221863	0.4680369397
537	0.9320924	0.7	0.2331862891	0.4516012695
538	0.9399226	0.683	0.2258205587	0.4354273875
539	0.9472252	0.667	0.2186242184	0.4195171529
540	0.954	0.65	0.2115963319	0.4038542193
541	0.9602561	0.633	0.2047358112	0.3884344014
542	0.9660074	0.616	0.198041425	0.3732723949
543	0.9712606	0.599	0.1915118065	0.3583900152
544	0.9760225	0.581	0.1851454615	0.3437987257
545	0.9803	0.564	0.1789407762	0.3295089796
546	0.9840924	0.548	0.1728960246	0.315537527
547	0.9874182	0.531	0.1670093763	0.3018989319
548	0.9903128	0.514	0.1612789038	0.2885990407
549	0.9928116	0.497	0.1557025895	0.2756429348
550	0.9949501	0.481	0.1502783327	0.2630410188
551	0.9967108	0.465	0.1450039567	0.2507960887
552	0.9980983	0.448	0.1398772151	0.2388993043
553	0.999112	0.433	0.1348957985	0.227338102
554	0.9997482	0.417	0.1300573405	0.2161122696
555	1	0.402	0.125359424	0.2052123133
556	0.9998567	0.3864	0.1207995867	0.1946397455
557	0.9993046	0.3715	0.1163753271	0.184408747
558	0.9983255	0.3569	0.1120841098	0.1745386559
559	0.9968987	0.3427	0.1079233704	0.1650443436
560	0.995	0.3288	0.103890521	0.1559365584
561	0.9926005	0.3151	0.0999829546	0.1472154991
562	0.9897426	0.3018	0.0961980501	0.1388698917
563	0.9864444	0.2888	0.0925331762	0.1308829309
564	0.9827241	0.2762	0.0889856959	0.1232453079
565	0.9786	0.2639	0.0855529706	0.1159426192
566	0.9740837	0.2519	0.0822323633	0.1089644357
567	0.9691712	0.2403	0.079021243	0.1023056892
568	0.9638568	0.2291	0.0759169872	0.0959628843
569	0.9581349	0.2182	0.072916986	0.0899272272
570	0.952	0.2076	0.0700186443	0.0841976858
571	0.9454504	0.1974	0.0672193851	0.0787639527
572	0.9384992	0.1876	0.0645166521	0.0736175366
573	0.9311628	0.1782	0.0619079121	0.068751182
574	0.9234576	0.169	0.059390657	0.0641554348
575	0.9154	0.1602	0.0569624067	0.0598206292
576	0.9070064	0.1517	0.0546207102	0.05573822
577	0.8982772	0.1436	0.0523631481	0.05189561
578	0.8892048	0.1358	0.050187334	0.0482808352
579	0.8797816	0.1284	0.0480909157	0.0448825082
580	0.87	0.1212	0.0460715774	0.0416907315
581	0.8598613	0.1143	0.04412704	0.0386958206
582	0.849392	0.1078	0.0422550629	0.0358891385
583	0.838622	0.1015	0.0404534448	0.0332635684
584	0.8275813	0.0956	0.0387200243	0.030811579
585	0.8163	0.0899	0.0370526813	0.0285253442
586	0.8047947	0.0845	0.0354493368	0.0263962441
587	0.793082	0.0793	0.0339079541	0.0244151897
588	0.781192	0.0745	0.032426539	0.0225744463
589	0.7691547	0.0699	0.0310031403	0.0208643719
590	0.757	0.0655	0.0296358498	0.0192782103
591	0.7447541	0.0613	0.0283228025	0.0178075053
592	0.7324224	0.0574	0.027062177	0.0164428071
593	0.7200036	0.0537	0.0258521953	0.0151770244
594	0.7074965	0.0502	0.0246911226	0.0140015493
595	0.6949	0.0469	0.0235772676	0.0129102616
596	0.6822192	0.0438	0.0225089818	0.0118971754
597	0.6694716	0.0409	0.0214846597	0.010958538
598	0.6566744	0.03816	0.0205027383	0.0100911587
599	0.6438448	0.03558	0.0195616966	0.0092911293
600	0.631	0.03315	0.0186600555	0.0085546859
601	0.6181555	0.03087	0.0177963773	0.0078778267
602	0.6053144	0.02874	0.016969265	0.0072551086
603	0.5924756	0.02674	0.016177362	0.0066815092
604	0.5796379	0.02487	0.0154193515	0.006152846
605	0.5668	0.02312	0.0146939559	0.0056648142
606	0.5539611	0.02147	0.0139999362	0.0052142332
607	0.5411372	0.01994	0.0133360913	0.0047985172
608	0.5283528	0.01851	0.0127012574	0.0044155201
609	0.5156323	0.01718	0.0120943073	0.0040629447
610	0.503	0.01593	0.0115141499	0.0037386943
611	0.4904688	0.01477	0.0109597292	0.0034407606
612	0.4780304	0.01369	0.0104300237	0.0031668653
613	0.4656776	0.01269	0.0099240457	0.0029149444
614	0.4534032	0.01175	0.0094408406	0.0026831265
615	0.4412	0.01088	0.0089794859	0.0024696
616	0.42908	0.01007	0.0085390909	0.0022729025
617	0.417036	0.00932	0.0081187956	0.0020918362
618	0.405032	0.00862	0.0077177699	0.0019251779
619	0.393032	0.00797	0.0073352132	0.0017718376
620	0.381	0.00737	0.0069703533	0.0016309103
621	0.3689184	0.00682	0.0066224458	0.0015013862
622	0.3568272	0.0063	0.0062907735	0.0013823687
623	0.3447768	0.00582	0.0059746454	0.001273055
624	0.3328176	0.00538	0.0056733958	0.0011726673
625	0.321	0.00497	0.0053863844	0.0010805111
626	0.3093381	0.00459	0.0051129945	0.000995893
627	0.2978504	0.00424	0.0048526332	0.0009181787
628	0.2865936	0.003913	0.00460473	0.0008467103
629	0.2756245	0.003613	0.0043687366	0.0007809753
630	0.265	0.003335	0.004144126	0.0007204543
631	0.2547632	0.003079	0.003930392	0.0006647123
632	0.2448896	0.002842	0.0037270481	0.0006133673
633	0.2353344	0.002623	0.0035336275	0.0005660941
634	0.2260528	0.002421	0.0033496819	0.0005225874
635	0.217	0.002235	0.0031747813	0.0004825393
636	0.2081616	0.002062	0.003008513	0.0004456881
637	0.1995488	0.001903	0.0028504814	0.0004117323
638	0.1911552	0.001757	0.0027003072	0.0003804217
639	0.1829744	0.001621	0.0025576266	0.0003514982
640	0.175	0.001497	0.0024220915	0.0003247648
641	0.1672235	0.001382	0.0022933679	0.0003000362
642	0.1596464	0.001276	0.0021711365	0.0002771775
643	0.1522776	0.001178	0.0020550911	0.0002560662
644	0.1451259	0.001088	0.001944939	0.0002365849
645	0.1382	0.001005	0.0018404	0.0002186266
646	0.1315003	0.000928	0.0017412061	0.0002020787
647	0.1250248	0.000857	0.0016471009	0.0001868358
648	0.1187792	0.000792	0.0015578395	0.0001727952
649	0.1127691	0.000732	0.0014731875	0.0001598622
650	0.107	0.000677	0.0013929211	0.0001479527
651	0.1014762	0.000626	0.0013168266	0.0001369818
652	0.09618864	0.000579	0.0012446997	0.0001268633
653	0.09112296	0.000536	0.0011763454	0.0001175256
654	0.08626485	0.000496	0.0011115775	0.0001088936
655	0.0816	0.000459	0.0010502185	0.0001009081
656	0.07712064	0.000425	0.0009920988	9.35154081647189E-005
657	0.07282552	0.0003935	0.0009370568	0.000086669
658	0.06871008	0.0003645	0.0008849381	8.0328281920386E-005
659	0.06476976	0.0003377	0.000835596	7.44589019164987E-005
660	0.061	0.0003129	0.0007888901	6.90253164981938E-005
661	0.05739621	0.0002901	0.000744687	6.39872971709923E-005
662	0.05395504	0.0002689	0.0007028595	5.93297659637826E-005
663	0.05067376	0.0002493	0.0006632862	5.50230837984026E-005
664	0.04754965	0.0002313	0.0006258519	0.00005104
665	0.04458	0.0002146	0.0005904466	4.73553822013627E-005
666	0.04175872	0.0001991	0.0005569657	4.39461890137588E-005
667	0.03908496	0.0001848	0.0005253097	4.07911555758619E-005
668	0.03656384	0.0001716	0.0004953839	3.7870719233095E-005
669	0.03420048	0.0001593	0.000467098	3.51668670879276E-005
670	0.032	0.000148	0.0004403666	0.000032663
671	0.02996261	0.0001375	0.000415108	3.03438674562289E-005
672	0.02807664	0.0001277	0.0003912448	2.8195360973863E-005
673	0.02632936	0.0001187	0.0003687034	2.62045176540581E-005
674	0.02470805	0.0001104	0.0003474138	2.43593807230405E-005
675	0.0232	0.0001026	0.0003273096	2.26489278402551E-005
676	0.02180077	0.0000954	0.0003083276	0.000021063
677	0.02050112	0.0000888	0.0002904079	1.95922130255898E-005
678	0.01928108	0.0000826	0.0002734935	1.82279336538654E-005
679	0.01812069	0.0000769	0.0002575305	1.69621822119749E-005
680	0.017	0.0000715	0.0002424675	1.57875989784112E-005
681	0.01590379	0.0000666	0.0002282559	1.46973913171915E-005
682	0.01483718	0.000062	0.0002148495	1.36852887276139E-005
683	0.01381068	0.0000578	0.0002022046	1.27455015484978E-005
684	0.01283478	0.0000538	0.0001902795	1.18726830132029E-005
685	0.01192	0.0000501	0.0001790349	1.1061894377407E-005
686	0.01106831	0.0000467	0.0001684336	1.03085728651256E-005
687	0.01027339	0.0000436	0.00015844	9.60850219992953E-006
688	0.009533311	0.0000406	0.0001490208	8.95778550796634E-006
689	0.008846157	0.00003789	0.0001401441	8.35282039734868E-006
690	0.00821	0.00003533	0.0001317798	7.7902760349066E-006
691	0.007623781	0.00003295	0.0001238995	7.26707205632256E-006
692	0.007085424	0.00003075	0.0001164762	6.78035915941442E-006
693	0.006591476	0.0000287	0.0001094843	6.32750124290311E-006
694	0.006138485	0.00002679	0.0001028997	5.90605896450461E-006
695	0.005723	0.00002501	9.66993764364436E-005	5.51377460270984E-006
696	0.005343059	0.00002336	9.08618121064866E-005	5.14855811624777E-006
697	0.004995796	0.00002182	8.53664777240212E-005	4.80847430403864E-006
698	0.004676404	0.00002038	0.000080194	4.49173097651283E-006
699	0.004380075	0.00001905	0.000075326	4.19666805655467E-006
700	0.004102	0.0000178	7.07452900140671E-005	3.92174753509001E-006
701	0.003838453	0.00001664	6.64353547939427E-005	3.66554421252884E-006
702	0.003589099	0.00001556	6.23807525224687E-005	3.42673716293989E-006
703	0.003354219	0.00001454	5.85668483781203E-005	3.20410186302879E-006
704	0.003134093	0.0000136	5.49798134298555E-005	2.99650293274539E-006
705	0.002929	0.00001273	5.160658243016E-005	2.80288743870348E-006
706	0.002738139	0.00001191	4.84348136776186E-005	2.62227871558884E-006
707	0.002559876	0.00001114	4.54528508565744E-005	2.45377066438956E-006
708	0.002393244	0.00001043	4.26496867650013E-005	2.29652248963657E-006
709	0.002237275	0.00000976	4.00149288451652E-005	2.14975384091611E-006
710	0.002091	0.00000914	3.75387664349927E-005	2.0127403267348E-006
711	0.001953587	0.00000856	3.52119396613364E-005	1.8848093714021E-006
712	0.00182458	0.00000802	3.30257098994663E-005	1.76533638796607E-006
713	0.00170358	0.00000751	3.09718317261873E-005	1.65374124241233E-006
714	0.001590187	0.00000704	2.9042526296943E-005	1.54948498633158E-006
715	0.001484	0.0000066	2.72304560801317E-005	1.4520668370913E-006
716	0.001384496	0.00000618	2.5528700884642E-005	0.000001361
717	0.001291268	0.0000058	2.39307351192895E-005	1.27591601831649E-006
718	0.001204092	0.00000544	2.24304062254366E-005	1.19634852399522E-006
719	0.001122744	0.0000051	2.1021914226575E-005	1.12194489211377E-006
720	0.001047	0.00000478	1.96997923410651E-005	1.0523572671791E-006
721	0.0009765896	0.00000449	1.84588886065631E-005	9.87262059360707E-007
722	0.0009111088	0.00000421	1.72943484669014E-005	9.26358195329387E-007
723	0.0008501332	0.000003951	1.62015982743639E-005	8.69365499127967E-007
724	0.0007932384	0.000003709	1.51763296623702E-005	0.000000816
725	0.00074	0.000003482	1.42144847455985E-005	7.66088509877082E-007
726	0.0006900827	0.00000327	1.33122421064983E-005	7.1933540646996E-007
727	0.00064331	0.00000307	0.000012466	6.75553373519829E-007
728	0.000599496	0.000002884	1.16723814420467E-005	6.34546331686852E-007
729	0.0005584547	0.00000271	1.0928187037159E-005	5.96131609062696E-007
730	0.00052	0.000002546	1.02304190261444E-005	5.60138993333301E-007
731	0.0004839136	0.000002393	9.57625300632217E-006	5.26409853085067E-007
732	0.0004500528	0.00000225	0.000008963	4.94796323059102E-007
733	0.0004183452	0.000002115	8.38825395551485E-006	4.6516054855985E-007
734	0.0003887184	0.000001989	7.84956873119885E-006	4.3737398459368E-007
735	0.0003611	0.00000187	7.34476361972333E-006	4.11316745653534E-007
736	0.0003353835	0.000001759	6.87175830310064E-006	3.86877002378914E-007
737	0.0003114404	0.000001655	6.42859666460969E-006	0.000000364
738	0.0002891656	0.000001557	6.01343961770099E-006	3.42439646615741E-007
739	0.0002684539	0.000001466	5.62455833231099E-006	3.22253814538022E-007
740	0.0002492	0.000001379	5.26032783768079E-006	3.03308108285793E-007
741	0.0002313019	0.000001299	4.91922098179966E-006	2.85523340364081E-007
742	0.0002146856	0.000001223	4.59980272857356E-006	2.68825566280722E-007
743	0.0001992884	0.000001151	4.30072477475516E-006	2.53145725367787E-007
744	0.0001850475	0.000001084	4.02072046956615E-006	2.38419307013324E-007
745	0.0001719	0.000001022	3.75860002079574E-006	2.24586040450212E-007
746	0.0001597781	0.000000962	3.51324597197511E-006	2.11589606388134E-007
747	0.0001486044	0.000000907	3.28360893600374E-006	1.99377368902963E-007
748	0.0001383016	0.000000855	3.06870357134618E-006	1.87900126116368E-007
749	0.0001287925	0.000000806	2.86760478762447E-006	1.77111878307799E-007
750	0.00012	0.00000076	2.6794441681054E-006	0.000000167
751	0.0001118595	0.000000716	2.50340659722425E-006	1.57433100268868E-007
752	0.0001043224	0.000000675	2.3387270818987E-006	1.48464713957126E-007
753	9.73356E-005	0.000000637	2.18468775596909E-006	0.00000014
754	9.084587E-005	0.000000601	2.04061505765635E-006	1.32093767928769E-007
755	0.0000848	0.000000567	1.90587707045675E-006	1.24627440752954E-007
756	7.914667E-005	0.000000535	1.77988101839552E-006	1.17601413323706E-007
757	0.000073858	0.000000505	1.66207090703929E-006	0.000000111
758	0.000068916	0.000000477	1.55192530212164E-006	1.04763924466052E-007
759	6.430267E-005	0.00000045	0.000001449	9.89034829747312E-008
760	0.00006	0.000000425	1.35270224912458E-006	9.33851620158929E-008
761	5.598187E-005	0.000000401	1.26273651615768E-006	8.81881781474355E-008
762	5.22256E-005	0.000000379	1.1786551226191E-006	8.32930585163564E-008
763	4.87184E-005	0.000000358	1.10008041345222E-006	7.86815552584321E-008
764	4.544747E-005	3.382E-007	1.02665845110673E-006	7.43365656774557E-008
765	0.0000424	3.196E-007	9.58057563117844E-007	7.02420578013607E-008
