wavelength [nm]	Irradiance [10-6 W cm-2]
380	0.0132918841
381	0.0135829592
382	0.0138783766
383	0.0141780007
384	0.0144821029
385	0.0147906831
386	0.0151036058
387	0.0154208708
388	0.0157427496
389	0.0160689707
390	0.01639967
391	0.016734983
392	0.0170747741
393	0.017419179
394	0.0177681976
395	0.0181216944
396	0.0184798049
397	0.0188425291
398	0.0192100029
399	0.0195819547
400	0.0199586561
401	0.0203401068
402	0.0207261714
403	0.0211169855
404	0.0215124133
405	0.0219127263
406	0.022317653
407	0.022727465
408	0.0231418907
409	0.0235612016
410	0.023985262
411	0.0244140718
412	0.0248476312
413	0.0252860757
414	0.0257292697
415	0.0261773488
416	0.0266301774
417	0.0270878913
418	0.0275504902
419	0.0280178387
420	0.0284900723
421	0.0289670554
422	0.0294489237
423	0.0299356772
424	0.0304271801
425	0.0309235682
426	0.0314248415
427	0.031931
428	0.0324419079
429	0.0329577011
430	0.0334782437
431	0.0340036714
432	0.0345339844
433	0.0350690468
434	0.0356089944
435	0.0361536915
436	0.0367032737
437	0.0372576054
438	0.0378168223
439	0.038380653
440	0.0389493689
441	0.0395228342
442	0.0401011847
443	0.040684149
444	0.0412718627
445	0.041864326
446	0.0424615387
447	0.0430635009
448	0.0436700768
449	0.0442814023
450	0.0448973415
451	0.0455178945
452	0.0461431969
453	0.0467731132
454	0.0474076432
455	0.048046787
456	0.0486904089
457	0.0493386445
458	0.049991494
459	0.0506488215
460	0.0513107628
461	0.0519770464
462	0.0526479439
463	0.0533231837
464	0.0540029016
465	0.0546870975
466	0.0553756359
467	0.0560685166
468	0.0567657397
469	0.0574674409
470	0.0581733488
471	0.0588834633
472	0.0595980559
473	0.0603167196
474	0.0610397255
475	0.0617668025
476	0.0624980861
477	0.0632335764
478	0.0639731377
479	0.06471677
480	0.0654644733
481	0.0662162475
482	0.0669720927
483	0.0677318732
484	0.068495589
485	0.0692633757
486	0.0700349621
487	0.070810348
488	0.0715896692
489	0.07237279
490	0.073159846
491	0.0739504303
492	0.0747449498
493	0.0755429975
494	0.0763448448
495	0.077150356
496	0.0779593953
497	0.0787719628
498	0.0795881942
499	0.0804079538
500	0.0812311059
501	0.0820577862
502	0.0828878589
503	0.0837213241
504	0.0845580462
505	0.0853982963
506	0.0862416676
507	0.0870884314
508	0.0879383162
509	0.0887914579
510	0.0896477206
511	0.0905071044
512	0.0913696092
513	0.0922350995
514	0.0931035752
515	0.0939751719
516	0.0948496183
517	0.0957270501
518	0.0966073316
519	0.0974904628
520	0.0983764437
521	0.0992651385
522	0.1001565473
523	0.1010506702
524	0.101947507
525	0.1028469221
526	0.1037490512
527	0.1046536228
528	0.1055607728
529	0.1064703653
530	0.1073824005
531	0.1082968782
532	0.1092136628
533	0.11013289
534	0.1110544241
535	0.1119781293
536	0.1129041415
537	0.1138321892
538	0.1147625437
539	0.1156950694
540	0.116629495
541	0.1175660917
542	0.1185045882
543	0.1194451202
544	0.1203876876
545	0.1213320192
546	0.1222782506
547	0.123226246
548	0.1241760056
549	0.1251276649
550	0.1260809526
551	0.1270358687
552	0.1279924132
553	0.1289505862
554	0.1299102517
555	0.1308715457
556	0.1318343324
557	0.1327984761
558	0.1337641124
559	0.1347309701
560	0.1356993205
561	0.1366695706
562	0.1376398207
563	0.1386114279
564	0.139585749
565	0.1405600701
566	0.1415357482
567	0.1425114263
568	0.1434898184
569	0.1444682105
570	0.1454479596
571	0.1464277087
572	0.1474101718
573	0.1483926349
574	0.149375098
575	0.150358918
576	0.1513440951
577	0.1523292722
578	0.1533158062
579	0.1543023403
580	0.1552888744
581	0.1562767654
582	0.1572660135
583	0.1582552615
584	0.1592445095
585	0.1602337576
586	0.1612243626
587	0.1622149677
588	0.1632055727
589	0.1641975347
590	0.1651881398
591	0.1661801018
592	0.1671720638
593	0.1681640259
594	0.1691559879
595	0.1701479499
596	0.171141269
597	0.172133231
598	0.173125193
599	0.1741185121
600	0.1751104741
601	0.1761024361
602	0.1770943982
603	0.1780863602
604	0.1790769652
605	0.1800689273
606	0.1810595323
607	0.1820501373
608	0.1830407424
609	0.1840313474
610	0.1850205955
611	0.1860098435
612	0.1869990916
613	0.1879869826
614	0.1889748737
615	0.1899627647
616	0.1909492988
617	0.1919344758
618	0.1929196529
619	0.19390483
620	0.1948886501
621	0.1958724701
622	0.1968549332
623	0.1978360393
624	0.1988171454
625	0.1997968945
626	0.2007766436
627	0.2017550357
628	0.2027320708
629	0.2037077489
630	0.204683427
631	0.2056577481
632	0.2066307123
633	0.2076036764
634	0.2085752835
635	0.2095441767
636	0.2105130698
637	0.211480606
638	0.2124481421
639	0.2134129643
640	0.2143764295
641	0.2153398946
642	0.2163006458
643	0.21726004
644	0.2182194342
645	0.2191761144
646	0.2201327946
647	0.2210867609
648	0.2220393701
649	0.2229906223
650	0.2239418746
651	0.2248890558
652	0.2258362371
653	0.2267820613
654	0.2277251716
655	0.2286669249
656	0.2296073212
657	0.2305463605
658	0.2314840428
659	0.2324190111
660	0.2333526224
661	0.2342848768
662	0.2352144171
663	0.2361426005
664	0.2370694268
665	0.2379935392
666	0.2389162946
667	0.239836336
668	0.2407563774
669	0.2416723478
670	0.2425883182
671	0.2435002176
672	0.2444121171
673	0.2453213025
674	0.246227774
675	0.2471328884
676	0.2480352889
677	0.2489363324
678	0.2498346619
679	0.2507316344
680	0.2516258929
681	0.2525187945
682	0.253408982
683	0.2542964556
684	0.2551825721
685	0.2560659747
686	0.2569466633
687	0.2578259949
688	0.2587026125
689	0.2595765161
690	0.2604490627
691	0.2613188954
692	0.262186014
693	0.2630517757
694	0.2639134664
695	0.2647738001
696	0.2656314198
697	0.2664876825
698	0.2673398742
699	0.268190709
700	0.2690388297
701	0.2698842365
702	0.2707282863
703	0.2715682651
704	0.2724068869
705	0.2732427947
706	0.2740746315
707	0.2749051114
708	0.2757342342
709	0.2765592861
710	0.277381624
711	0.2782012478
712	0.2790195147
713	0.2798337107
714	0.2806465496
715	0.2814553176
716	0.2822627285
717	0.2830674255
718	0.2838680515
719	0.2846673205
720	0.2854638755
721	0.2862563595
722	0.2870474865
723	0.2878345426
724	0.2886202417
725	0.2894032268
726	0.2901821408
727	0.290959698
728	0.2917331841
729	0.2925039562
730	0.2932733714
731	0.2940387155
732	0.2948013457
733	0.2955612619
734	0.2963184641
735	0.2970729523
736	0.2978233696
737	0.2985724298
738	0.2993174191
739	0.3000610514
740	0.3008006127
741	0.30153746
742	0.3022715933
743	0.3030030126
744	0.303730361
745	0.3044563524
746	0.3051782728
747	0.3058974792
748	0.3066139716
749	0.30732775
750	0.3080374574
751	0.3087458079
752	0.3094500874
753	0.3101516528
754	0.3108505043
755	0.3115452849
756	0.3122387084
757	0.3129280609
758	0.3136146995
759	0.3142986241
760	0.3149784777
761	0.3156569743
762	0.3163313999
763	0.3170017545
764	0.3176707522
765	0.3183356789
766	0.3189992485
767	0.3196587472
768	0.320314175
769	0.3209682457
770	0.3216182454
771	0.3222655312
772	0.322908746
773	0.3235506037
774	0.3241883906
775	0.3248234634
776	0.3254558222
777	0.3260841101
778	0.3267096839
779	0.3273325438
780	0.3279513327
